Exclusion radius,rho
0,0.980241
1,0.967714
2,0.960257
3,0.957068
4,0.954678
5,0.954102
6,0.953753
7,0.953454
8,0.953454
9,0.953589
10,0.953518
12,0.953466
14,0.953475
16,0.95342
18,0.953348
20,0.952962
25,0.952637
30,0.952225
